#     Step          Temp           Pot           Kin           Tot         Press
         0         239.6      -1.61402      0.707588     -0.906436    -0.0244276
         1       239.499      -1.61373      0.707291     -0.906436    -0.0243859
         2       239.196      -1.61283      0.706396     -0.906437    -0.0242605
         3       238.686      -1.61133       0.70489     -0.906439    -0.0240504
         4       237.963       -1.6092      0.702755     -0.906441    -0.0237541
         5       237.019      -1.60641      0.699965     -0.906444    -0.0233696
         6       235.841      -1.60293      0.696486     -0.906447    -0.0228944
         7       234.416      -1.59873      0.692278     -0.906452    -0.0223255
         8       232.728      -1.59375      0.687294     -0.906456    -0.0216594
         9        230.76      -1.58794      0.681481     -0.906461    -0.0208985
        10       228.491      -1.58125      0.674781     -0.906468    -0.0200354
        11       225.898       -1.5736      0.667125     -0.906474    -0.0190572
        12       222.958      -1.56492       0.65844     -0.906481    -0.0179653
        13       219.644      -1.55514      0.648653     -0.906488    -0.0167565
        14       215.933      -1.54419      0.637694     -0.906497    -0.0154378
        15       211.802        -1.532      0.625496     -0.906504     -0.014002
        16       207.233      -1.51851      0.612001      -0.90651    -0.0124202
        17       202.209      -1.50368      0.597164     -0.906514    -0.0106995
        18       196.726      -1.48749      0.580971     -0.906517   -0.00884493
        19       190.793      -1.46997       0.56345     -0.906517   -0.00687817
        20       184.437      -1.45119       0.54468     -0.906514    -0.0048093
        21       177.706      -1.43131      0.524803     -0.906504   -0.00262428
        22       170.671      -1.41052      0.504027      -0.90649  -0.000352923
        23       163.427      -1.38911      0.482635     -0.906472    0.00196707
        24       156.094      -1.36743      0.460977     -0.906449    0.00430374
        25       148.807      -1.34588      0.439457     -0.906423    0.00662241
        26       141.712       -1.3249      0.418504     -0.906398    0.00888316
        27       134.951      -1.30491      0.398537     -0.906375     0.0110436
        28       128.654       -1.2863       0.37994     -0.906355     0.0130729
        29       122.929      -1.26938      0.363035     -0.906341      0.014933
        30       117.858      -1.25439       0.34806     -0.906333     0.0166027
        31       113.493       -1.2415      0.335168     -0.906329     0.0180718
        32       109.857      -1.23076      0.324431     -0.906329     0.0193313
        33        106.95      -1.22218      0.315844     -0.906333     0.0203853
        34       104.747      -1.21568      0.309341      -0.90634     0.0212292
        35        103.21      -1.21115        0.3048     -0.906349      0.021878
        36       102.283      -1.20842      0.302061      -0.90636     0.0223342
        37       101.902      -1.20731      0.300938     -0.906372     0.0226277
        38       101.999      -1.20761      0.301223     -0.906385     0.0227788
        39       102.499       -1.2091      0.302701     -0.906397      0.022793
        40       103.328      -1.21156      0.305149     -0.906409     0.0227136
        41       104.412      -1.21477      0.308349     -0.906421     0.0225384
        42        105.68      -1.21853      0.312094     -0.906432     0.0223101
        43       107.064      -1.22263      0.316183     -0.906443     0.0220267
        44       108.503      -1.22688      0.320433     -0.906452     0.0217158
        45        109.94      -1.23113      0.324674      -0.90646     0.0213826
        46       111.323      -1.23523      0.328761     -0.906467     0.0210563
        47       112.612      -1.23904      0.332566     -0.906472     0.0207447
        48       113.772      -1.24247      0.335991     -0.906476     0.0204663
        49       114.779      -1.24544      0.338965     -0.906478     0.0202124
        50        115.62      -1.24793      0.341448     -0.906478     0.0200009
        51       116.292      -1.24991      0.343434     -0.906476     0.0198355
        52       116.805      -1.25142      0.344949     -0.906471     0.0196971
        53       117.177      -1.25251      0.346047     -0.906465     0.0195985
        54       117.432      -1.25326        0.3468     -0.906459     0.0195277
        55       117.597      -1.25374      0.347289     -0.906454     0.0194818
        56       117.701      -1.25404      0.347595     -0.906449     0.0194561
        57       117.764      -1.25423      0.347782     -0.906446     0.0194408
        58       117.802      -1.25434      0.347893     -0.906444     0.0194404
        59        117.82      -1.25439      0.347947     -0.906444     0.0194438
        60       117.819      -1.25439      0.347944     -0.906445     0.0194426
        61       117.795      -1.25432      0.347874     -0.906445     0.0194555
        62       117.746      -1.25417      0.347729     -0.906445     0.0194784
        63        117.67      -1.25395      0.347505     -0.906445     0.0195048
        64       117.571      -1.25366      0.347213     -0.906442     0.0195384
        65       117.458      -1.25332      0.346876     -0.906439     0.0195804
        66       117.341      -1.25297      0.346532     -0.906436     0.0196176
        67       117.237      -1.25266      0.346224     -0.906432     0.0196607
        68       117.161      -1.25243      0.345999     -0.906429     0.0196926
        69       117.127      -1.25233      0.345899     -0.906426     0.0197242
        70       117.147      -1.25238      0.345958     -0.906424     0.0197376
        71       117.228      -1.25262      0.346198     -0.906422     0.0197307
        72       117.375      -1.25305      0.346631     -0.906423     0.0197025
        73       117.584      -1.25367       0.34725     -0.906424     0.0196664
        74        117.85      -1.25446      0.348035     -0.906426      0.019619
        75       118.161      -1.25538      0.348954     -0.906429     0.0195566
        76       118.503       -1.2564      0.349965     -0.906432     0.0194857
        77       118.861      -1.25746      0.351021     -0.906435     0.0194253
        78       119.217      -1.25851      0.352073     -0.906438      0.019355
        79       119.555      -1.25951      0.353071     -0.906441     0.0192775
        80        119.86      -1.26041       0.35397     -0.906443     0.0192145
        81       120.118      -1.26118      0.354733     -0.906445     0.0191577
        82       120.321      -1.26178      0.355331     -0.906446     0.0191192
        83       120.462      -1.26219      0.355748     -0.906446     0.0190923
        84        120.54      -1.26242      0.355979     -0.906445     0.0190821
        85       120.557      -1.26247       0.35603     -0.906444     0.0190849
        86       120.518      -1.26236      0.355914     -0.906443     0.0191058
        87        120.43       -1.2621      0.355655     -0.906441     0.0191331
        88       120.303      -1.26172       0.35528     -0.906439     0.0191723
        89       120.147      -1.26125      0.354817     -0.906437      0.019211
        90       119.972      -1.26074      0.354301     -0.906435     0.0192626
        91       119.789      -1.26019      0.353761     -0.906433     0.0193191
        92       119.609      -1.25966      0.353231     -0.906431     0.0193646
        93       119.443      -1.25917      0.352738      -0.90643     0.0193981
        94       119.297      -1.25874      0.352308     -0.906429     0.0194174
        95       119.179      -1.25839       0.35196     -0.906428     0.0194434
        96       119.094      -1.25814      0.351709     -0.906427     0.0194551
        97       119.046      -1.25799      0.351566     -0.906427     0.0194482
        98       119.035      -1.25796      0.351535     -0.906428     0.0194338
        99       119.062      -1.25804      0.351616     -0.906428     0.0193987
       100       119.126      -1.25823      0.351803     -0.906429     0.0193596
       101       119.222      -1.25852      0.352088     -0.906429     0.0193125
       102       119.347      -1.25889      0.352458      -0.90643     0.0192582
       103       119.498      -1.25933      0.352902     -0.906431     0.0191882
       104        119.67      -1.25984      0.353409     -0.906432     0.0191229
       105       119.859       -1.2604      0.353968     -0.906432     0.0190341
       106       120.064      -1.26101      0.354573     -0.906433     0.0189403
       107       120.283      -1.26165      0.355219     -0.906433     0.0188517
       108       120.516      -1.26234      0.355907     -0.906432     0.0187438
       109       120.765      -1.26307      0.356644     -0.906431     0.0186311
       110       121.034      -1.26387      0.357438     -0.906429     0.0185109
       111       121.327      -1.26473      0.358303     -0.906428     0.0183856
       112        121.65      -1.26569      0.359258     -0.906427     0.0182538
       113        122.01      -1.26675      0.360321     -0.906425     0.0180977
       114       122.412      -1.26793      0.361509     -0.906423     0.0179372
       115       122.863      -1.26926      0.362838     -0.906422     0.0177678
       116       123.364      -1.27074       0.36432     -0.906421      0.017579
       117       123.919      -1.27238      0.365957     -0.906421     0.0173771
       118       124.525      -1.27417      0.367749     -0.906421     0.0171626
       119       125.181      -1.27611      0.369686     -0.906422     0.0169382
       120        125.88      -1.27817      0.371751     -0.906424     0.0166961
       121       126.614      -1.28034      0.373918     -0.906425     0.0164502
       122       127.372      -1.28258      0.376157     -0.906428     0.0162003
       123       128.143      -1.28486      0.378433      -0.90643      0.015945
       124       128.914      -1.28714      0.380708     -0.906432      0.015688
       125       129.671      -1.28938      0.382946     -0.906434      0.015446
       126       130.403      -1.29154      0.385108     -0.906437     0.0152112
       127       131.099       -1.2936      0.387163     -0.906437     0.0149787
       128       131.749      -1.29552      0.389082     -0.906438      0.014761
       129       132.345      -1.29728      0.390841      -0.90644      0.014564
       130       132.879      -1.29886       0.39242      -0.90644     0.0143846
       131       133.349      -1.30025      0.393807     -0.906441     0.0142259
       132       133.751      -1.30143      0.394994     -0.906441      0.014094
       133       134.083      -1.30242      0.395975     -0.906441     0.0139779
       134       134.346      -1.30319      0.396751     -0.906441     0.0138927
       135       134.538      -1.30376       0.39732     -0.906441     0.0138271
       136       134.662      -1.30412      0.397684     -0.906441     0.0137779
       137       134.716      -1.30429      0.397845     -0.906441     0.0137596
       138       134.702      -1.30424      0.397804     -0.906441     0.0137625
       139       134.619        -1.304      0.397559     -0.906441     0.0137866
       140       134.467      -1.30355      0.397108     -0.906442     0.0138336
       141       134.243      -1.30289      0.396448     -0.906443     0.0139088
       142       133.946      -1.30201      0.395571     -0.906444     0.0140043
       143       133.574      -1.30092      0.394471     -0.906444     0.0141174
       144       133.124      -1.29959      0.393142     -0.906445     0.0142614
       145       132.594      -1.29802      0.391578     -0.906446     0.0144204
       146       131.983      -1.29622      0.389774     -0.906446     0.0146058
       147       131.291      -1.29418       0.38773     -0.906445     0.0148255
       148        130.52       -1.2919      0.385451     -0.906445     0.0150625
       149       129.671      -1.28939      0.382945     -0.906445     0.0153272
       150        128.75      -1.28667      0.380225     -0.906443     0.0156179
       151       127.764      -1.28376      0.377314     -0.906442     0.0159242
       152       126.722      -1.28068      0.374237      -0.90644      0.016237
       153       125.634      -1.27746      0.371024     -0.906437     0.0165662
       154       124.513      -1.27415      0.367712     -0.906435     0.0169033
       155       123.371      -1.27077       0.36434     -0.906432     0.0172562
       156       122.221      -1.26737      0.360945      -0.90643     0.0176011
       157       121.078        -1.264       0.35757     -0.906427     0.0179472
       158       119.956      -1.26068      0.354255     -0.906425     0.0182901
       159       118.869      -1.25747      0.351045     -0.906423     0.0186259
       160       117.831       -1.2544       0.34798      -0.90642     0.0189406
       161       116.857      -1.25152      0.345102     -0.906418     0.0192433
       162       115.959      -1.24886       0.34245     -0.906415     0.0195185
       163        115.15      -1.24647      0.340062     -0.906413     0.0197677
       164       114.443      -1.24438      0.337973     -0.906411     0.0199873
       165       113.847      -1.24262      0.336213      -0.90641     0.0201746
       166       113.371      -1.24122      0.334807     -0.906409     0.0203301
       167       113.021      -1.24018      0.333776     -0.906408     0.0204424
       168       112.803      -1.23954      0.333129     -0.906408     0.0205199
       169       112.715      -1.23928      0.332872     -0.906408     0.0205605
       170       112.758      -1.23941      0.332999     -0.906409     0.0205663
       171       112.927      -1.23991      0.333497      -0.90641     0.0205335
       172       113.214      -1.24076      0.334345     -0.906411     0.0204639
       173        113.61      -1.24193      0.335515     -0.906413     0.0203649
       174       114.105      -1.24339      0.336974     -0.906415     0.0202231
       175       114.685      -1.24511      0.338688     -0.906418     0.0200681
       176       115.339      -1.24704      0.340618     -0.906419     0.0198837
       177       116.052      -1.24915      0.342725     -0.906422     0.0196802
       178       116.813       -1.2514      0.344972     -0.906424     0.0194677
       179       117.609      -1.25375      0.347322     -0.906425     0.0192447
       180       118.428      -1.25617      0.349741     -0.906427         0.019
       181       119.259      -1.25863      0.352197     -0.906429     0.0187466
       182       120.093      -1.26109      0.354659     -0.906431     0.0185005
       183       120.919      -1.26353      0.357099     -0.906433     0.0182566
       184       121.727      -1.26592      0.359486     -0.906435     0.0180114
       185       122.508      -1.26823      0.361793     -0.906436     0.0177791
       186       123.253      -1.27043      0.363991     -0.906438      0.017551
       187       123.952      -1.27249      0.366055     -0.906439     0.0173396
       188       124.597       -1.2744      0.367961      -0.90644      0.017139
       189       125.182      -1.27613      0.369689      -0.90644     0.0169527
       190       125.703      -1.27767      0.371226      -0.90644     0.0167855
       191       126.156      -1.27901      0.372566     -0.906441     0.0166346
       192       126.543      -1.28015      0.373708      -0.90644     0.0165004
       193       126.866       -1.2811      0.374662     -0.906439     0.0163855
       194       127.128      -1.28187      0.375437     -0.906438     0.0162921
       195       127.336      -1.28249       0.37605     -0.906436      0.016214
       196       127.496      -1.28296      0.376522     -0.906435     0.0161446
       197       127.614       -1.2833       0.37687     -0.906433     0.0160805
       198       127.696      -1.28354      0.377112     -0.906432      0.016025
       199       127.748       -1.2837      0.377265     -0.906431     0.0159996
       200       127.773      -1.28377       0.37734     -0.906431     0.0159637
       201       127.776      -1.28378      0.377348      -0.90643     0.0159408
       202        127.76      -1.28373      0.377301     -0.906429     0.0159169
       203       127.729      -1.28364       0.37721      -0.90643     0.0159088
       204       127.686      -1.28351      0.377084     -0.906429     0.0159041
       205       127.637      -1.28337      0.376939     -0.906428     0.0159032
       206       127.586      -1.28321      0.376787     -0.906428     0.0158935
       207       127.536      -1.28307      0.376641     -0.906427     0.0158836
       208       127.494      -1.28294      0.376515     -0.906426     0.0158676
       209       127.461      -1.28284      0.376418     -0.906425     0.0158558
       210       127.441      -1.28278      0.376358     -0.906425     0.0158444
       211       127.435      -1.28277      0.376341     -0.906425     0.0158248
       212       127.443      -1.28279      0.376367     -0.906426     0.0157987
       213       127.465      -1.28286      0.376431     -0.906427     0.0157795
       214       127.498      -1.28296      0.376529     -0.906427     0.0157646
       215        127.54      -1.28308      0.376652     -0.906428     0.0157381
       216       127.587      -1.28322       0.37679     -0.906429     0.0157078
       217       127.635      -1.28336      0.376933      -0.90643     0.0156841
       218       127.681       -1.2835      0.377069     -0.906431     0.0156568
       219       127.722      -1.28362      0.377189     -0.906432     0.0156382
       220       127.753      -1.28371      0.377281     -0.906433     0.0156227
       221       127.771      -1.28377      0.377333     -0.906434     0.0156016
       222       127.771      -1.28377      0.377335     -0.906436     0.0155904
       223       127.752      -1.28371      0.377277     -0.906437     0.0155835
       224       127.708      -1.28358      0.377148     -0.906437       0.01558
       225       127.638      -1.28338      0.376941     -0.906437     0.0155919
       226        127.54      -1.28309      0.376653     -0.906437     0.0156112
       227       127.416      -1.28272      0.376285     -0.906436     0.0156327
       228       127.266      -1.28228      0.375842     -0.906435     0.0156672
       229       127.096      -1.28177      0.375339     -0.906434     0.0156988
       230       126.911      -1.28123      0.374794     -0.906432     0.0157418
       231       126.721      -1.28066      0.374233     -0.906429     0.0157841
       232       126.537      -1.28012      0.373688     -0.906427     0.0158326
       233        126.37      -1.27962      0.373196     -0.906425      0.015866
       234       126.234      -1.27922      0.372794     -0.906422     0.0158893
       235        126.14      -1.27894      0.372517      -0.90642     0.0158943
       236       126.099      -1.27882      0.372397     -0.906418     0.0158879
       237       126.121      -1.27888      0.372461     -0.906417     0.0158711
       238        126.21      -1.27914      0.372725     -0.906416     0.0158326
       239       126.371      -1.27962        0.3732     -0.906417     0.0157831
       240       126.602       -1.2803      0.373881     -0.906418       0.01571
       241       126.896      -1.28117      0.374751     -0.906419     0.0156163
       242       127.246      -1.28221      0.375785     -0.906421      0.015506
       243       127.641      -1.28337      0.376949     -0.906424     0.0153837
       244       128.066      -1.28463      0.378204     -0.906427     0.0152464
