#     Step          Temp           Pot           Kin           Tot         Press
         0             1      -1.44798         0.875     -0.572981     -0.965432
         1      0.999874      -1.44788      0.874889     -0.572986     -0.945091
         2      0.999235      -1.44732      0.874331     -0.572992     -0.921477
         3      0.998003      -1.44625      0.873253     -0.572999      -0.89433
         4      0.996084      -1.44458      0.871574     -0.573007     -0.863357
         5      0.993371      -1.44222        0.8692     -0.573016     -0.828236
         6      0.989743      -1.43905      0.866025     -0.573026     -0.788605
         7      0.985065      -1.43497      0.861932     -0.573037     -0.744072
         8      0.979186      -1.42984      0.856788      -0.57305     -0.694205
         9      0.971939      -1.42351      0.850447     -0.573064     -0.638543
        10      0.963144      -1.41583      0.842751     -0.573079     -0.576593
        11      0.952605      -1.40662      0.833529     -0.573095     -0.507839
        12      0.940116      -1.39571      0.822602     -0.573112     -0.431753
        13      0.925466      -1.38291      0.809783      -0.57313     -0.347807
        14      0.908443      -1.36803      0.794887     -0.573147     -0.255496
        15       0.88884       -1.3509      0.777735     -0.573165     -0.154365
        16      0.866474      -1.33135      0.758165      -0.57318    -0.0440437
        17      0.841196      -1.30924      0.736046     -0.573194     0.0757066
        18      0.812909       -1.2845      0.711295     -0.573203      0.204941
        19      0.781592       -1.2571      0.683893     -0.573208      0.343469
        20      0.747325      -1.22711      0.653909     -0.573205      0.490781
        21      0.710312      -1.19472      0.621523     -0.573194      0.645985
        22      0.670909      -1.16022      0.587045     -0.573173      0.807738
        23      0.629638      -1.12408      0.550933     -0.573142      0.974197
        24      0.587204       -1.0869      0.513803       -0.5731         1.143
        25      0.544483      -1.04947      0.476423     -0.573048       1.31129
        26      0.502508      -1.01268      0.439694     -0.572989       1.47577
        27      0.462417     -0.977542      0.404615     -0.572927       1.63286
        28      0.425395     -0.945086      0.372221     -0.572866       1.77889
        29      0.392588     -0.916325      0.343515     -0.572811       1.91031
        30      0.365014     -0.892155      0.319387     -0.572768       2.02399
        31      0.343475     -0.873281      0.300541      -0.57274       2.11745
        32      0.328488     -0.860157      0.287427      -0.57273       2.18907
        33       0.32024     -0.852949       0.28021     -0.572739       2.23821
        34      0.318583     -0.851526       0.27876     -0.572765       2.26524
        35      0.323067     -0.855488      0.282684     -0.572804       2.27143
        36      0.332996     -0.864223      0.291372     -0.572851       2.25879
        37      0.347514     -0.876976      0.304075     -0.572902       2.22985
        38       0.36569     -0.892929      0.319978      -0.57295       2.18738
        39      0.386602      -0.91127      0.338277     -0.572994       2.13414
        40      0.409402     -0.931256      0.358226     -0.573029       2.07274
        41       0.43336     -0.952246       0.37919     -0.573056       2.00545
        42      0.457889     -0.973727      0.400653     -0.573074       1.93418
        43      0.482545     -0.995311      0.422227     -0.573084       1.86042
        44      0.507016      -1.01673      0.443639     -0.573088       1.78528
        45      0.531103       -1.0378      0.464715     -0.573087       1.70956
        46       0.55469      -1.05844      0.485354     -0.573083       1.63381
        47      0.577721      -1.07858      0.505506     -0.573077        1.5584
        48      0.600175      -1.09822      0.525153     -0.573071       1.48361
        49      0.622048      -1.11736      0.544292     -0.573065       1.40963
        50      0.643339      -1.13598      0.562922     -0.573059       1.33664
        51      0.664042      -1.15409      0.581037     -0.573055       1.26484
        52       0.68414      -1.17167      0.598622     -0.573052       1.19444
        53      0.703606       -1.1887      0.615655     -0.573049       1.12567
        54      0.722402      -1.20515      0.632102     -0.573048       1.05878
        55      0.740487      -1.22097      0.647926     -0.573046      0.994023
        56      0.757814      -1.23613      0.663087     -0.573045      0.931674
        57      0.774336      -1.25059      0.677544     -0.573044      0.871984
        58      0.790012       -1.2643       0.69126     -0.573043      0.815191
        59      0.804804      -1.27725      0.704203     -0.573042       0.76151
        60      0.818682      -1.28939      0.716347     -0.573041      0.711129
        61      0.831625      -1.30071      0.727672     -0.573039      0.664204
        62      0.843619       -1.3112      0.738167     -0.573037      0.620861
        63      0.854658      -1.32086      0.747826     -0.573035      0.581195
        64      0.864743      -1.32968       0.75665     -0.573032      0.545274
        65       0.87388      -1.33768      0.764645      -0.57303      0.513138
        66      0.882083      -1.34485      0.771822     -0.573027      0.484807
        67      0.889366      -1.35122      0.778195     -0.573025      0.460281
        68      0.895748       -1.3568      0.783779     -0.573022      0.439544
        69      0.901249      -1.36161      0.788593      -0.57302      0.422566
        70      0.905891      -1.36567      0.792655     -0.573018      0.409309
        71      0.909696        -1.369      0.795984     -0.573016      0.399724
        72      0.912684      -1.37161      0.798598     -0.573014      0.393757
        73      0.914877      -1.37353      0.800517     -0.573013      0.391347
        74      0.916295      -1.37477      0.801758     -0.573011      0.392428
        75      0.916958      -1.37535      0.802338      -0.57301      0.396931
        76      0.916885      -1.37528      0.802275     -0.573009      0.404778
        77      0.916098      -1.37459      0.801585     -0.573008      0.415887
        78      0.914615      -1.37329      0.800288     -0.573007      0.430168
        79      0.912458      -1.37141        0.7984     -0.573005      0.447524
        80       0.90965      -1.36895      0.795944     -0.573004      0.467845
        81      0.906217      -1.36594       0.79294     -0.573003       0.49101
        82      0.902188      -1.36242      0.789414     -0.573002      0.516885
        83      0.897594       -1.3584      0.785395        -0.573      0.545319
        84      0.892474      -1.35391      0.780915     -0.572999      0.576145
        85      0.886869      -1.34901       0.77601     -0.572997      0.609179
        86      0.880826      -1.34372      0.770723     -0.572994      0.644218
        87      0.874398      -1.33809      0.765099     -0.572992      0.681041
        88      0.867643      -1.33218      0.759188     -0.572989       0.71941
        89      0.860624      -1.32603      0.753046     -0.572986      0.759074
        90      0.853406      -1.31971       0.74673     -0.572983      0.799768
        91      0.846058      -1.31328      0.740301      -0.57298       0.84122
        92       0.83865       -1.3068      0.733819     -0.572977      0.883159
        93      0.831251      -1.30032      0.727344     -0.572974      0.925315
        94      0.823926      -1.29391      0.720935     -0.572972      0.967429
        95      0.816735      -1.28761      0.714643      -0.57297       1.00926
        96      0.809732      -1.28148      0.708515     -0.572968       1.05059
        97      0.802958      -1.27556      0.702588     -0.572967       1.09124
        98      0.796444      -1.26986      0.696889     -0.572967       1.13106
        99      0.790209       -1.2644      0.691433     -0.572968       1.16993
       100      0.784255      -1.25919      0.686223      -0.57297       1.20781
       101      0.778573      -1.25422      0.681252     -0.572972       1.24466
       102      0.773138      -1.24947      0.676496     -0.572975       1.28051
       103      0.767913       -1.2449      0.671924     -0.572979       1.31542
       104      0.762853      -1.24048      0.667496     -0.572983       1.34948
       105      0.757903      -1.23615      0.663165     -0.572988        1.3828
       106      0.753007      -1.23187      0.658881     -0.572992        1.4155
       107      0.748108      -1.22759      0.654594     -0.572997        1.4477
       108      0.743153      -1.22326      0.650259        -0.573        1.4795
       109        0.7381      -1.21884      0.645838     -0.573003         1.511
       110      0.732919      -1.21431      0.641304     -0.573005       1.54222
       111      0.727597      -1.20965      0.636647     -0.573006       1.57316
       112       0.72214      -1.20488      0.631873     -0.573005       1.60375
       113       0.71658      -1.20001      0.627007     -0.573004       1.63384
       114      0.710969       -1.1951      0.622098        -0.573       1.66324
       115      0.705386      -1.19021      0.617213     -0.572995       1.69165
       116      0.699935      -1.18543      0.612443     -0.572989       1.71875
       117      0.694737      -1.18088      0.607895     -0.572982       1.74411
       118      0.689932      -1.17667      0.603691     -0.572974       1.76729
       119      0.685672      -1.17293      0.599963     -0.572966       1.78782
       120      0.682111      -1.16981      0.596847     -0.572958        1.8052
       121      0.679398      -1.16742      0.594473     -0.572951       1.81897
       122      0.677672      -1.16591      0.592963     -0.572945       1.82872
       123      0.677044      -1.16535      0.592414     -0.572941        1.8341
       124      0.677598      -1.16584      0.592898     -0.572939       1.83486
       125      0.679373      -1.16739      0.594451      -0.57294        1.8309
       126      0.682363      -1.17001      0.597068     -0.572944       1.82224
       127      0.686512      -1.17365      0.600698     -0.572951       1.80907
       128       0.69171      -1.17821      0.605246     -0.572961       1.79174
       129      0.697796      -1.18354      0.610572     -0.572973       1.77074
       130      0.704564      -1.18948      0.616493     -0.572988       1.74672
       131      0.711767       -1.1958      0.622796     -0.573004       1.72045
       132      0.719132      -1.20226      0.629241     -0.573022       1.69275
       133      0.726369      -1.20861      0.635573     -0.573039       1.66453
       134      0.733186      -1.21459      0.641538     -0.573056       1.63668
       135      0.739302      -1.21996       0.64689     -0.573072       1.61006
       136      0.744464      -1.22449      0.651406     -0.573085       1.58544
       137       0.74846        -1.228      0.654903     -0.573095       1.56348
       138      0.751132      -1.23034       0.65724     -0.573102       1.54465
       139      0.752388      -1.23144      0.658339     -0.573103       1.52926
       140      0.752212      -1.23129      0.658186     -0.573101       1.51734
       141      0.750672      -1.22993      0.656838     -0.573093       1.50872
       142       0.74792      -1.22751       0.65443      -0.57308       1.50294
       143      0.744192      -1.22423      0.651168     -0.573063       1.49932
       144      0.739803      -1.22037      0.647327     -0.573041       1.49693
       145      0.735133      -1.21626      0.643242     -0.573017       1.49464
       146      0.730614      -1.21228      0.639287      -0.57299       1.49122
       147      0.726701      -1.20883      0.635864     -0.572964       1.48532
       148      0.723853      -1.20631      0.633371     -0.572939       1.47561
       149      0.722498       -1.2051      0.632185     -0.572917       1.46087
       150      0.723008      -1.20553      0.632632       -0.5729       1.44004
       151      0.725675      -1.20785      0.634965     -0.572888       1.41229
       152      0.730685      -1.21223       0.63935     -0.572883       1.37712
       153      0.738114      -1.21873       0.64585     -0.572884       1.33437
       154      0.747917      -1.22732      0.654428     -0.572892       1.28423
       155      0.759938      -1.23785      0.664945     -0.572905       1.22723
       156      0.773921       -1.2501      0.677181     -0.572923       1.16421
       157      0.789537      -1.26379      0.690845     -0.572943       1.09621
       158      0.806399      -1.27856      0.705599     -0.572965       1.02448
       159      0.824095      -1.29407      0.721083     -0.572986      0.950338
       160       0.84221      -1.30994      0.736933     -0.573007      0.875119
       161      0.860343      -1.32583        0.7528     -0.573025      0.800123
       162      0.878131      -1.34141      0.768365     -0.573041      0.726555
       163      0.895253       -1.3564      0.783347     -0.573053      0.655491
       164      0.911441      -1.37057      0.797511     -0.573063      0.587858
       165      0.926477      -1.38374      0.810667     -0.573069      0.524427
       166      0.940197      -1.39575      0.822672     -0.573073      0.465814
       167      0.952482       -1.4065      0.833422     -0.573075      0.412494
       168      0.963254      -1.41592      0.842847     -0.573076      0.364812
       169      0.972467      -1.42398      0.850909     -0.573074      0.323009
       170      0.980101      -1.43066      0.857588     -0.573073      0.287239
       171      0.986155      -1.43596      0.862885      -0.57307      0.257588
       172      0.990638      -1.43988      0.866808     -0.573068      0.234096
       173      0.993568      -1.44244      0.869372     -0.573066      0.216773
       174      0.994961      -1.44366      0.870591     -0.573064      0.205609
       175      0.994834      -1.44354      0.870479     -0.573063      0.200593
       176      0.993193      -1.44211      0.869044     -0.573063      0.201715
       177      0.990042      -1.43935      0.866287     -0.573064      0.208976
       178       0.98537      -1.43526      0.862199     -0.573065      0.222391
       179       0.97916      -1.42983      0.856765     -0.573068       0.24199
       180      0.971384      -1.42303      0.849961     -0.573071      0.267819
       181      0.962005      -1.41483      0.841754     -0.573075      0.299933
       182      0.950979      -1.40519      0.832107      -0.57308      0.338392
       183      0.938259      -1.39406      0.820977     -0.573085      0.383253
       184      0.923797      -1.38141      0.808322      -0.57309      0.434561
       185      0.907546       -1.3672      0.794103     -0.573095       0.49233
       186       0.88947      -1.35139      0.778287       -0.5731      0.556534
       187       0.86955      -1.33396      0.760856     -0.573103      0.627082
       188      0.847784      -1.31492      0.741811     -0.573106      0.703801
       189      0.824206      -1.29429       0.72118     -0.573106      0.786409
       190      0.798886      -1.27213      0.699025     -0.573103      0.874494
       191      0.771943      -1.24855       0.67545     -0.573097      0.967484
       192      0.743555       -1.2237      0.650611     -0.573088       1.06462
       193      0.713966      -1.19779       0.62472     -0.573074       1.16495
       194      0.683493      -1.17111      0.598056     -0.573056       1.26729
       195      0.652531        -1.144      0.570965     -0.573033       1.37021
       196      0.621553      -1.11686      0.543859     -0.573006       1.47208
       197      0.591106      -1.09019      0.517218     -0.572974       1.57105
       198      0.561803      -1.06452      0.491578      -0.57294       1.66507
       199      0.534301      -1.04042      0.467513     -0.572903       1.75201
       200       0.50928      -1.01849       0.44562     -0.572867       1.82965
       201      0.487414      -0.99932      0.426487     -0.572833       1.89585
       202      0.469332     -0.983468      0.410666     -0.572802       1.94861
       203      0.455586     -0.971416      0.398638     -0.572778       1.98619
       204       0.44661     -0.963546      0.390784     -0.572762       2.00721
       205      0.442693     -0.960112      0.387356     -0.572755       2.01078
       206      0.443955     -0.961219      0.388461     -0.572759        1.9965
       207      0.450338     -0.966817      0.394046     -0.572772       1.96453
       208      0.461607       -0.9767      0.403906     -0.572793       1.91559
       209      0.477368     -0.990519      0.417697     -0.572823        1.8509
       210      0.497089      -1.00781      0.434953     -0.572857        1.7721
       211      0.520141      -1.02802      0.455123     -0.572895       1.68114
       212      0.545831      -1.05053      0.477602     -0.572933       1.58019
       213      0.573444      -1.07473      0.501764      -0.57297       1.47153
       214       0.60228          -1.1      0.526995     -0.573004       1.35738
       215      0.631678      -1.12575      0.552718     -0.573034        1.2399
       216      0.661045      -1.15147      0.578415      -0.57306       1.12104
       217      0.689869      -1.17671      0.603635     -0.573079       1.00253
       218      0.717724       -1.2011      0.628009     -0.573094      0.885857
       219      0.744276      -1.22434      0.651242     -0.573103      0.772222
       220      0.769276      -1.24622      0.673116     -0.573108      0.662584
       221      0.792553      -1.26659      0.693484     -0.573109      0.557655
       222      0.814007      -1.28536      0.712256     -0.573107      0.457932
       223      0.833598       -1.3025      0.729398     -0.573102       0.36372
       224      0.851333      -1.31801      0.744916     -0.573095      0.275165
       225      0.867258      -1.33194       0.75885     -0.573087      0.192283
       226      0.881449      -1.34435      0.771268     -0.573078      0.114985
       227      0.894003      -1.35532      0.782253     -0.573068     0.0431008
       228      0.905032      -1.36496      0.791903     -0.573058     -0.023598
       229      0.914656      -1.37337      0.800324     -0.573048    -0.0853813
       230      0.922999      -1.38066      0.807624     -0.573038     -0.142545
       231      0.930185      -1.38694      0.813912     -0.573029       -0.1954
       232      0.936336      -1.39231      0.819294      -0.57302      -0.24426
       233       0.94157      -1.39689      0.823874     -0.573012     -0.289438
       234      0.945997      -1.40075      0.827748     -0.573004     -0.331235
       235      0.949722        -1.404      0.831007     -0.572997     -0.369942
       236      0.952841      -1.40673      0.833736     -0.572991     -0.405831
       237      0.955442        -1.409      0.836011     -0.572985     -0.439159
       238      0.957605      -1.41088      0.837904      -0.57298      -0.47016
       239      0.959403      -1.41245      0.839477     -0.572975     -0.499049
       240      0.960899      -1.41376      0.840787     -0.572971     -0.526023
       241      0.962152      -1.41485      0.841883     -0.572967     -0.551254
       242      0.963209      -1.41577      0.842808     -0.572964     -0.574899
       243      0.964114      -1.41656        0.8436     -0.572962     -0.597093
       244      0.964904      -1.41725      0.844291     -0.572959     -0.617952
